Upwind_distance(m) WD90(m) WD120(m) WD150(m) WD186(m)
0.5,0.564916968345642,0.361608892679214,0.176977545022964,0.0942138656973839
1.5,0.508642554283142,0.339453130960464,0.147070318460464,-0.00588378915563226
2.5,0.446691900491714,0.362036138772964,0.124426268041134,-0.113671876490116
3.5,0.383398443460464,0.419287115335464,0.0655273422598839,-0.224206537008286
4.5,0.437170416116714,0.413488775491714,-0.0618530288338661,-0.361840814352036
5.5,0.520239233970642,0.328527837991714,-0.150231927633286,-0.408105462789536
6.5,0.596166968345642,0.228002935647964,-0.229821771383286,-0.331811517477036
7.5,0.675939917564392,0.119543455541134,-0.270959466695786,-0.207238763570786
8.5,0.755407691001892,0.022009277716279,-0.285913079977036,-0.253198236227036
9.5,0.789160132408142,-0.0946899428963661,-0.303674310445786,-0.315576165914536
10.5,0.783911108970642,-0.222375482320786,-0.437097162008286,-0.327966302633286
11.5,0.736669898033142,-0.337304681539536,-0.606652855873108,-0.327844232320786
12.5,0.699682593345642,-0.479089349508286,-0.795800805091858,-0.351342767477036
13.5,0.625646948814392,-0.625695824623108,-1.00509035587311,-0.393579095602036
14.5,0.525244116783142,-0.742761254310608,-1.08876955509186,-0.423913568258286
15.5,0.409521490335464,-0.850549340248108,-1.07436525821686,-0.459313958883286
16.5,0.267065435647964,-0.926538109779358,-0.941552758216858,-0.644006371498108
17.5,0.0815185531973839,-0.940332055091858,-0.770349144935608,-0.868798851966858
18.5,-0.133996576070786,-0.961328148841858,-0.655542016029358,-1.04085695743561
19.5,-0.373193353414536,-1.00631105899811,-0.577355980873108,-1.23806154727936
20.5,-0.618493676185608,-1.07094728946686,-0.412011712789536,-1.59560549259186
21.5,-0.828637719154358,-1.07589113712311,-0.158654779195786,-1.73073732852936
22.5,-1.05599367618561,-0.992150902748108,-0.126000970602036,-1.39779055118561
23.5,-1.27669680118561,-0.896081566810608,-0.256066888570786,-1.25020754337311
24.5,-1.47164309024811,-0.795068383216858,-0.394006341695786,-1.03109133243561
25.5,-1.79006350040436,-0.919458031654358,-0.728967308998108,-0.639855980873108
26.5,-2.20150136947632,-1.26424562931061,-1.21273195743561,-0.244103997945786
27.5,-2.68398427963257,-1.76461184024811,-1.80971682071686,-0.180810540914536
28.5,-3.24910879135132,-2.45394277572632,-2.40303945541382,-0.319970697164536
29.5,-3.76772451400757,-3.31282949447632,-2.95717763900757,-0.505761742591858
30.5,-4.13918447494507,-4.20559072494507,-3.48281240463257,-0.580285668373108
31.5,-4.33864736557007,-4.84237051010132,-3.96181631088257,-0.594934105873108
32.5,-4.43135976791382,-5.18752431869507,-4.44381093978882,-0.682397484779358
33.5,-4.37947988510132,-5.42940664291382,-4.88448476791382,-0.768090844154358
34.5,-4.36184072494507,-5.62014150619507,-5.16280508041382,-0.800866723060608
35.5,-4.43386220932007,-5.62691640853882,-5.22799062728882,-0.809472680091858
36.5,-4.55739736557007,-5.35579824447632,-5.25258779525757,-0.793786644935608
37.5,-4.63369131088257,-4.81759023666382,-5.20864248275757,-0.824365258216858
38.5,-4.72866201400757,-4.37423086166382,-4.04189443588257,-0.884912133216858
39.5,-4.78365468978882,-4.11635732650757,-2.77626943588257,-1.05532228946686
40.5,-4.87551259994507,-3.88424062728882,-2.36275625228882,-1.24337160587311
41.5,-4.87502431869507,-3.62062978744507,-2.11428213119507,-1.45345461368561
42.5,-4.73336172103882,-3.34908437728882,-2.00582265853882,-1.69118654727936
43.5,-4.60268545150757,-3.09401845932007,-2.02950429916382,-1.92702639102936
44.5,-4.60317373275757,-2.93184804916382,-2.08449697494507,-2.22829580307007
45.5,-4.65633535385132,-2.78457021713257,-2.03865957260132,-2.57357168197632
46.5,-4.69722890853882,-2.75216054916382,-1.74355471134186,-2.92891836166382
47.5,-4.70485830307007,-2.73513174057007,-1.12893068790436,-3.29519033432007
48.5,-4.71059560775757,-2.69790029525757,-0.602319359779358,-3.65407705307007
49.5,-4.67806386947632,-2.60714101791382,-0.0879150405526161,-3.97152090072632
50.5,-4.63393545150757,-2.53255605697632,0.138098150491714,-4.28707265853882
51.5,-4.51882314682007,-2.48201894760132,-0.0791870132088661,-4.60946035385132
52.5,-4.32924795150757,-2.36306142807007,-0.352868646383286,-4.96730947494507
53.5,-4.13131093978882,-2.28353261947632,-0.539147973060608,-5.29195547103882
54.5,-3.98226308822632,-2.14467763900757,-0.589868187904358,-5.48116445541382
55.5,-3.89608144760132,-1.91579592227936,-0.588220238685608,-5.45522451400757
56.5,-3.87832021713257,-1.70589601993561,-0.490380853414536,-5.46480703353882
57.5,-3.81307363510132,-1.43789064884186,-0.296411126852036,-5.41091299057007
58.5,-3.72402334213257,-1.17476809024811,-0.0772338882088661,-5.25490713119507
59.5,-3.59017324447632,-1.22036135196686,0.152014166116714,-4.59420156478882
60.5,-3.47164297103882,-1.48488771915436,0.308142095804214,-4.01925039291382
61.5,-3.32564687728882,-1.61617434024811,0.425390630960464,-4.01021718978882
62.5,-3.14156484603882,-1.60140383243561,0.390173345804214,-3.90389394760132
63.5,-2.96889638900757,-1.58303225040436,0.415258795022964,-3.60988759994507
64.5,-2.86776113510132,-1.48098146915436,0.604711890220642,-3.31087636947632
65.5,-2.85665273666382,-1.37722170352936,0.928198218345642,-3.09505605697632
66.5,-2.82760000228882,-1.26015627384186,1.20462644100189,-2.92257070541382
67.5,-2.82998037338257,-1.20314943790436,1.25412595272064,-2.88778066635132
68.5,-2.80526113510132,-1.16658937931061,0.998815894126892,-2.92836904525757
69.5,-2.86318349838257,-1.13271486759186,0.652319312095642,-2.93007802963257
70.5,-2.91591787338257,-0.921472191810608,0.386999517679214,-2.79531240463257
71.5,-2.90657949447632,-0.667504906654358,0.354650884866714,-2.60958242416382
72.5,-2.87630605697632,-0.496118158102036,0.416784673929214,-2.35030508041382
73.5,-2.78334951400757,-0.460412591695786,0.539892554283142,-2.20400381088257
74.5,-2.71547842025757,-0.354394525289536,0.568884253501892,-2.17751455307007
75.5,-2.61782217025757,-0.212731927633286,0.461828619241714,-2.21932363510132
76.5,-2.44759511947632,-0.020837401971221,0.204016119241714,-2.38924551010132
77.5,-2.26284170150757,0.152441412210464,-0.0838867202401161,-2.61275625228882
78.5,-2.11080312728882,0.209204107522964,-0.254785150289536,-2.90401601791382
79.5,-1.92159426212311,0.180334478616714,-0.157617181539536,-3.18471670150757
80.5,-1.93105471134186,0.0914672836661339,0.0336669906973839,-3.44777822494507
81.5,-2.12575674057007,-0.105249024927616,0.244055181741714,-3.64986562728882
82.5,-2.31435537338257,-0.242761224508286,0.381933599710464,-3.77736806869507
83.5,-2.42763662338257,-0.315087884664536,0.422216802835464,-3.70437002182007
84.5,-2.36251211166382,-0.345056146383286,0.420629888772964,-3.50307607650757
85.5,-2.19094228744507,-0.422753900289536,0.351049810647964,-3.45980215072632
86.5,-2.10549306869507,-0.490624994039536,0.0510620102286339,-3.45675039291382
87.5,-2.10122060775757,-0.299584954977036,-0.336877435445786,-3.45925283432007
88.5,-2.12783193588257,0.0810302719473839,-0.683984398841858,-3.48348379135132
89.5,-2.09865713119507,0.295690923929214,-0.908471703529358,-3.53701162338257
90.5,-2.05794668197632,0.287695318460464,-0.999719262123108,-3.62941884994507
91.5,-1.96059572696686,0.108374021947384,-1.11501467227936,-3.69442129135132
92.5,-1.83718264102936,-0.276940912008286,-1.18837893009186,-3.75264883041382
93.5,-1.63106691837311,-0.844201683998108,-1.11153566837311,-3.78988027572632
94.5,-1.47023928165436,-1.55581057071686,-0.984460473060608,-3.93453359603882
95.5,-1.33101809024811,-2.27327871322632,-0.774011254310608,-4.15450429916382
96.5,-1.16317141056061,-2.86904287338257,-0.533532738685608,-4.37911367416382
97.5,-0.950830101966858,-3.35415029525757,-0.286645501852036,-4.60274648666382
98.5,-0.706994652748108,-3.74459218978882,-0.0514160171151161,-4.81093740463257
99.5,-0.433923333883286,-4.06026601791382,-0.00557861337438226,-4.98476552963257
100.5,-0.351770013570786,-4.26125478744507,-0.215600579977036,-5.04665517807007
101.5,-0.385644525289536,-4.30697011947632,-0.460107415914536,-4.99215078353882
102.5,-0.397668451070786,-4.37520742416382,-0.503076195716858,-4.87478017807007
103.5,-0.417504876852036,-4.43868398666382,-0.389794915914536,-4.78280019760132
104.5,-0.429162591695786,-4.43129873275757,-0.451989740133286,-4.64211416244507
105.5,-0.430993646383286,-4.36885976791382,-0.880578637123108,-4.44185781478882
106.5,-0.425927728414536,-4.31545400619507,-1.09218752384186,-4.56606435775757
107.5,-0.459313958883286,-4.24099111557007,-0.793542504310608,-4.81697988510132
108.5,-0.346582025289536,-4.11916494369507,-0.413598626852036,-5.05666494369507
109.5,-0.140832513570786,-4.02309560775757,-0.0576416030526161,-5.00808095932007
110.5,-0.109582521021366,-3.93331289291382,0.00260009756311774,-4.87581777572632
111.5,-0.137170404195786,-3.77388906478882,-0.237878412008286,-4.61361074447632
112.5,-0.141015619039536,-3.56459951400757,-0.415917962789536,-4.24068593978882
113.5,-0.0929809585213661,-3.36837148666382,-0.525354027748108,-4.02608633041382
114.5,-0.101525880396366,-3.15120840072632,-0.621789574623108,-4.08931875228882
115.5,-0.138757318258286,-2.90798330307007,-0.556481957435608,-4.08590078353882
116.5,-0.206994622945786,-2.75966787338257,-0.251184076070786,-4.10543203353882
117.5,-0.293664544820786,-2.44143056869507,-0.0963378921151161,-4.35915517807007
118.5,-0.380334466695786,-2.02687978744507,-0.193322747945786,-4.83925771713257
119.5,-0.479516595602036,-1.89089357852936,-0.600366234779358,-5.32442617416382
120.5,-0.587670922279358,-2.06899404525757,-1.08828127384186,-5.73049306869507
121.5,-0.620080590248108,-2.23531484603882,-1.74086916446686,-6.05666494369507
122.5,-0.585778832435608,-2.45595693588257,-2.26778554916382,-6.34493398666382
123.5,-0.498986810445786,-2.66426992416382,-2.61843252182007,-6.65621328353882
124.5,-0.421655267477036,-2.88411855697632,-2.92305898666382,-7.04366445541382
125.5,-0.289147943258286,-3.02395009994507,-2.95034170150757,-7.45235586166382
126.5,-0.0868164077401161,-3.07869863510132,-2.89107656478882,-7.96389150619507
127.5,0.021643066778779,-3.02321767807007,-2.83193349838257,-8.51351356506348
128.5,0.131262212991714,-2.99172353744507,-2.69521474838257,-8.94478797912598
129.5,0.106359861791134,-2.98946523666382,-2.43520498275757,-8.93898963928223
130.5,-0.0808349624276161,-2.99910879135132,-2.33034658432007,-8.69979286193848
131.5,-0.213159173727036,-3.07064199447632,-2.23360586166382,-8.29738807678223
132.5,-0.277856439352036,-3.13356924057007,-2.10775136947632,-7.97219228744507
133.5,-0.459680169820786,-3.19136953353882,-2.01101064682007,-7.65908193588257
134.5,-0.602685570716858,-3.33864736557007,-1.92696535587311,-7.35213613510132
135.5,-0.651025414466858,-3.46181631088257,-1.76650393009186,-7.01717519760132
136.5,-0.652856469154358,-3.31716299057007,-1.43673098087311,-6.86910390853882
137.5,-0.686975121498108,-2.91079092025757,-1.05880129337311,-6.81710195541382
138.5,-0.817834496498108,-2.55898427963257,-0.857873558998108,-6.69954824447632
139.5,-0.972680687904358,-2.28749990463257,-0.891626000404358,-6.87001943588257
140.5,-1.08382570743561,-2.24050283432007,-1.14101564884186,-7.04812002182007
141.5,-1.22231447696686,-2.32228994369507,-1.40932619571686,-6.92623281478882
142.5,-1.47176516056061,-2.38619375228882,-1.66549074649811,-6.79061269760132
143.5,-1.71798098087311,-2.45205068588257,-1.84426271915436,-6.70815420150757
144.5,-1.96694338321686,-2.44985342025757,-1.87636721134186,-6.42580556869507
145.5,-2.26259756088257,-2.39577627182007,-1.88039553165436,-6.21804189682007
146.5,-2.45968008041382,-2.38070058822632,-1.82882082462311,-5.93618154525757
147.5,-2.56936025619507,-2.27840566635132,-1.74776613712311,-5.94844961166382
148.5,-2.68416738510132,-2.16683340072632,-1.79219973087311,-6.02834463119507
149.5,-2.91933584213257,-2.08516836166382,-1.77163088321686,-6.03896474838257
150.5,-3.13100576400757,-1.99215090274811,-1.65828859806061,-5.82729482650757
151.5,-3.41518545150757,-1.91030275821686,-1.54427492618561,-5.61263418197632
152.5,-3.55452871322632,-1.85543215274811,-1.50899660587311,-5.42800283432007
153.5,-3.55581045150757,-1.80898439884186,-1.59298098087311,-5.15120840072632
154.5,-3.54647207260132,-1.66890871524811,-1.65340578556061,-4.91390371322632
155.5,-3.70601797103882,-1.45278322696686,-1.60860598087311,-4.65493154525757
156.5,-3.78884267807007,-1.31911623477936,-1.42232668399811,-4.32875967025757
157.5,-3.68569326400757,-1.31936037540436,-1.28859865665436,-4.03566884994507
158.5,-3.68734121322632,-1.25356447696686,-1.31844484806061,-3.88533926010132
159.5,-3.88985586166382,-1.11690676212311,-1.32497560977936,-3.71828603744507
160.5,-3.89168691635132,-1.02150881290436,-1.16152346134186,-3.68361806869507
161.5,-3.83034658432007,-0.888208031654358,-0.933435082435608,-3.68245840072632
162.5,-3.77565908432007,-0.763208031654358,-0.892053246498108,-3.68325185775757
163.5,-3.81533193588257,-0.714379906654358,-0.806115746498108,-3.81661367416382
164.5,-3.95742177963257,-0.742517113685608,-0.726831078529358,-3.90822744369507
165.5,-4.05300283432007,-0.682885766029358,-0.750024437904358,-4.05574941635132
166.5,-4.06301259994507,-0.543359398841858,-0.781884789466858,-4.20028066635132
167.5,-4.06697988510132,-0.365624994039536,-0.736901879310608,-4.31893301010132
168.5,-4.07741689682007,-0.422998040914536,-0.653527855873108,-4.35677480697632
169.5,-4.05892324447632,-0.360253900289536,-0.478540033102036,-4.31881093978882
170.5,-4.08236074447632,-0.251611322164536,-0.248925775289536,-4.26595449447632
171.5,-4.20815420150757,-0.111230470240116,0.030310058966279,-4.34761953353882
172.5,-4.26839590072632,0.0653442367911339,0.298376470804214,-4.49184560775757
173.5,-4.16164541244507,0.216772466897964,0.458166509866714,-4.50905752182007
174.5,-3.96700429916382,0.419775396585464,0.319921880960464,-4.50344228744507
175.5,-3.83217763900757,0.735205054283142,-0.0483032241463661,-4.52315664291382
176.5,-3.84981679916382,0.765661597251892,-0.517053246498108,-4.53139638900757
177.5,-3.93856191635132,0.755041480064392,-0.817285180091858,-4.33748769760132
178.5,-3.99965810775757,0.887426733970642,-0.866235375404358,-4.08229970932007
179.5,-4.00100088119507,0.925878882408142,-0.814721703529358,-3.74764394760132
180.5,-3.91268301010132,1.22708737850189,-0.574670433998108,-3.38942861557007
181.5,-3.67116689682007,1.70645749568939,-0.375695794820786,-3.13625478744507
182.5,-3.42519521713257,2.34122323989868,-0.221093744039536,-2.90322256088257
183.5,-3.23848867416382,3.03500986099243,-0.157861322164536,-2.66390371322632
184.5,-3.14364004135132,2.82938241958618,-0.278771966695786,-2.48739004135132
185.5,-3.14669179916382,2.79581308364868,-0.526513695716858,-2.37465810775757
186.5,-3.23781728744507,2.86466073989868,-0.774804711341858,-2.33394765853882
187.5,-3.38277578353882,2.90933847427368,-0.914636254310608,-2.35793447494507
188.5,-3.62777090072632,2.87418222427368,-0.809167504310608,-2.36068105697632
189.5,-3.90694570541382,2.67172861099243,-0.697961449623108,-2.41903066635132
190.5,-4.18093252182007,2.60288095474243,-0.698449730873108,-2.43831777572632
191.5,-4.45400381088257,2.64536142349243,-0.818505883216858,-2.43361806869507
192.5,-4.75307607650757,2.71170663833618,-0.949914574623108,-2.38985586166382
193.5,-4.96444082260132,2.72604990005493,-0.896752953529358,-2.37606191635132
194.5,-4.89235830307007,2.93985605239868,-0.837976098060608,-2.24135732650757
195.5,-4.55642080307007,3.20169687271118,-0.840661644935608,-2.04500722885132
196.5,-4.14290761947632,3.48410654067993,-0.854089379310608,-1.81368410587311
197.5,-3.93880605697632,3.61606454849243,-0.947656273841858,-1.58803713321686
198.5,-3.87484121322632,3.84580087661743,-0.975183129310608,-1.38900148868561
199.5,-3.84450674057007,3.62369394302368,-0.939172387123108,-1.29122316837311
